# Radius (kpc) Keplerian_V (km/s)
0.000000000000000000e+00 inf
5.000000000000000278e-02 1.311626471218082543e+03
1.000000000000000056e-01 9.274599721820882223e+02
1.499999999999999944e-01 7.572678962339989539e+02
2.000000000000000111e-01 6.558132356090412713e+02
2.500000000000000000e-01 5.865771901463608629e+02
2.999999999999999889e-01 5.354692646019315134e+02
3.499999999999999778e-01 4.957482079788949818e+02
4.000000000000000222e-01 4.637299860910441112e+02
4.500000000000000111e-01 4.372088237393608665e+02
5.000000000000000000e-01 4.147727088418427002e+02
5.500000000000000444e-01 3.954702609207515138e+02
5.999999999999999778e-01 3.786339481169994770e+02
6.500000000000000222e-01 3.637797304794376601e+02
6.999999999999999556e-01 3.505469196229555564e+02
7.500000000000000000e-01 3.386604986314957273e+02
8.000000000000000444e-01 3.279066178045206357e+02
8.499999999999999778e-01 3.181161460110774897e+02
9.000000000000000222e-01 3.091533240606960931e+02
9.499999999999999556e-01 3.009077494585517343e+02
1.000000000000000000e+00 2.932885950731804314e+02
1.050000000000000044e+00 2.862203613268895879e+02
1.100000000000000089e+00 2.796397032546767036e+02
1.149999999999999911e+00 2.734930251077871617e+02
1.199999999999999956e+00 2.677346323009657567e+02
1.250000000000000000e+00 2.623252942436165540e+02
1.300000000000000044e+00 2.572311142802249719e+02
1.350000000000000089e+00 2.524226320779996513e+02
1.399999999999999911e+00 2.478741039894474909e+02
1.449999999999999956e+00 2.435629211348150420e+02
1.500000000000000000e+00 2.394691351023481332e+02
1.550000000000000044e+00 2.355750685094367043e+02
1.600000000000000089e+00 2.318649930455220556e+02
1.649999999999999911e+00 2.283248615990874271e+02
1.699999999999999956e+00 2.249420840493627622e+02
1.750000000000000000e+00 2.217053385529025604e+02
1.800000000000000044e+00 2.186044118696804333e+02
1.850000000000000089e+00 2.156300635911521510e+02
1.899999999999999911e+00 2.127739101537245858e+02
1.949999999999999956e+00 2.100283253180328416e+02
2.000000000000000000e+00 2.073863544209213501e+02
2.049999999999999822e+00 2.048416402028054790e+02
2.100000000000000089e+00 2.023883584079075035e+02
2.149999999999999911e+00 2.000211616711568468e+02
2.200000000000000178e+00 1.977351304603757569e+02
2.250000000000000000e+00 1.955257300487869543e+02
2.299999999999999822e+00 1.933887726609389972e+02
2.350000000000000089e+00 1.913203840726390581e+02
2.399999999999999911e+00 1.893169740584997385e+02
2.450000000000000178e+00 1.873752101740118121e+02
2.500000000000000000e+00 1.854919944364176558e+02
2.549999999999999822e+00 1.836644425330618731e+02
2.600000000000000089e+00 1.818898652397188300e+02
2.649999999999999911e+00 1.801657517765447949e+02
2.700000000000000178e+00 1.784897548673104950e+02
2.750000000000000000e+00 1.768596772996757807e+02
2.799999999999999822e+00 1.752734598114777782e+02
2.850000000000000089e+00 1.737291701511393001e+02
2.899999999999999911e+00 1.722249931800319871e+02
2.950000000000000178e+00 1.707592219015031105e+02
3.000000000000000000e+00 1.693302493157478636e+02
3.049999999999999822e+00 1.679365610121577106e+02
3.100000000000000089e+00 1.665767284215082213e+02
3.149999999999999911e+00 1.652494026596316417e+02
3.200000000000000178e+00 1.639533089022603178e+02
3.250000000000000000e+00 1.626872412377149431e+02
3.299999999999999822e+00 1.614500579501946618e+02
3.350000000000000089e+00 1.602406771917345338e+02
3.399999999999999911e+00 1.590580730055387448e+02
3.450000000000000178e+00 1.579012716674659771e+02
3.500000000000000000e+00 1.567693483160167034e+02
3.549999999999999822e+00 1.556614238443148679e+02
3.600000000000000089e+00 1.545766620303480465e+02
3.649999999999999911e+00 1.535142668841769193e+02
3.700000000000000178e+00 1.524734801929901380e+02
3.750000000000000000e+00 1.514535792467997908e+02
3.799999999999999822e+00 1.504538747292758671e+02
3.850000000000000089e+00 1.494737087597334266e+02
3.899999999999999911e+00 1.485124530736352710e+02
3.950000000000000178e+00 1.475695073301760658e+02
4.000000000000000000e+00 1.466442975365902157e+02
4.049999999999999822e+00 1.457362745797869650e+02
4.099999999999999645e+00 1.448449128567786772e+02
4.150000000000000355e+00 1.439697089961417191e+02
4.200000000000000178e+00 1.431101806634447939e+02
4.250000000000000000e+00 1.422658654442035697e+02
4.299999999999999822e+00 1.414363197984857550e+02
4.349999999999999645e+00 1.406211180817970501e+02
4.400000000000000355e+00 1.398198516273383518e+02
4.450000000000000178e+00 1.390321278851390616e+02
4.500000000000000000e+00 1.382575696139475383e+02
4.549999999999999822e+00 1.374958141220993753e+02
4.599999999999999645e+00 1.367465125538935808e+02
4.650000000000000355e+00 1.360093292182878031e+02
4.700000000000000178e+00 1.352839409569778297e+02
4.750000000000000000e+00 1.345700365491594255e+02
4.799999999999999822e+00 1.338673161504828784e+02
4.849999999999999645e+00 1.331754907639021610e+02
4.900000000000000355e+00 1.324942817402983053e+02
4.950000000000000178e+00 1.318234203069171713e+02
5.000000000000000000e+00 1.311626471218082770e+02
5.049999999999999822e+00 1.305117118525884337e+02
5.099999999999999645e+00 1.298703727779750352e+02
5.150000000000000355e+00 1.292383964106492442e+02
5.200000000000000178e+00 1.286155571401124860e+02
5.250000000000000000e+00 1.280016368942954159e+02
5.299999999999999822e+00 1.273964248187670876e+02
5.349999999999999645e+00 1.267997169724722539e+02
5.400000000000000355e+00 1.262113160389998257e+02
5.450000000000000178e+00 1.256310310524543610e+02
5.500000000000000000e+00 1.250586771370652599e+02
5.549999999999999822e+00 1.244940752597278220e+02
5.599999999999999645e+00 1.239370519947237455e+02
5.650000000000000355e+00 1.233874392999188103e+02
5.700000000000000178e+00 1.228450743037821411e+02
5.750000000000000000e+00 1.223097991026137663e+02
5.799999999999999822e+00 1.217814605674075210e+02
5.849999999999999645e+00 1.212599101598125628e+02
5.900000000000000355e+00 1.207450037566912755e+02
5.950000000000000178e+00 1.202366014828032803e+02
6.000000000000000000e+00 1.197345675511740666e+02
6.049999999999999822e+00 1.192387701107347908e+02
6.099999999999999645e+00 1.187490811008450748e+02
6.150000000000000355e+00 1.182653761123341951e+02
6.200000000000000178e+00 1.177875342547183521e+02
6.250000000000000000e+00 1.173154380292721726e+02
6.299999999999999822e+00 1.168489732076518521e+02
6.349999999999999645e+00 1.163880287157852678e+02
6.400000000000000355e+00 1.159324965227610278e+02
6.450000000000000178e+00 1.154822715344640613e+02
6.500000000000000000e+00 1.150372514917199709e+02
6.549999999999999822e+00 1.145973368727240995e+02
6.599999999999999645e+00 1.141624307995437135e+02
6.650000000000000355e+00 1.137324389484940781e+02
6.700000000000000178e+00 1.133072694642000187e+02
6.750000000000000000e+00 1.128868328771652472e+02
6.799999999999999822e+00 1.124710420246813811e+02
6.849999999999999645e+00 1.120598119749181762e+02
6.900000000000000355e+00 1.116530599540444655e+02
6.950000000000000178e+00 1.112507052762382784e+02
7.000000000000000000e+00 1.108526692764512802e+02
7.049999999999999822e+00 1.104588752458007690e+02
7.099999999999999645e+00 1.100692483694683830e+02
7.150000000000000355e+00 1.096837156669917022e+02
7.200000000000000178e+00 1.093022059348402166e+02
7.250000000000000000e+00 1.089246496911733288e+02
7.299999999999999822e+00 1.085509791226829464e+02
7.349999999999999645e+00 1.081811280334284220e+02
7.400000000000000355e+00 1.078150317955760755e+02
7.450000000000000178e+00 1.074526273019601916e+02
7.500000000000000000e+00 1.070938529203862970e+02
7.549999999999999822e+00 1.067386484496018113e+02
7.599999999999999645e+00 1.063869550768622929e+02
7.650000000000000355e+00 1.060387153370258346e+02
7.700000000000000178e+00 1.056938730731105522e+02
7.750000000000000000e+00 1.053523733982541160e+02
7.799999999999999822e+00 1.050141626590164208e+02
7.849999999999999645e+00 1.046791883999701014e+02
7.900000000000000355e+00 1.043473993295254161e+02
7.950000000000000178e+00 1.040187452869394207e+02
8.000000000000000000e+00 1.036931772104606750e+02
8.050000000000000711e+00 1.033706471065641210e+02
8.099999999999999645e+00 1.030511080202320358e+02
8.150000000000000355e+00 1.027345140062391948e+02
8.199999999999999289e+00 1.024208201014027395e+02
8.250000000000000000e+00 1.021099822977581653e+02
8.300000000000000711e+00 1.018019575166257056e+02
8.349999999999999645e+00 1.014967035835319820e+02
8.400000000000000355e+00 1.011941792039537518e+02
8.449999999999999289e+00 1.008943439398525186e+02
8.500000000000000000e+00 1.005971581869692670e+02
8.550000000000000711e+00 1.003025831528505591e+02
8.599999999999999645e+00 1.000105808355784234e+02
8.650000000000000355e+00 9.972111400317729135e+01
8.699999999999999289e+00 9.943414617367294284e+01
8.750000000000000000e+00 9.914964159577898783e+01
8.800000000000000711e+00 9.886756523018787846e+01
8.849999999999999645e+00 9.858788273144386949e+01
8.900000000000000355e+00 9.831056043037710879e+01
8.949999999999999289e+00 9.803556531707820909e+01
9.000000000000000000e+00 9.776286502439347714e+01
9.050000000000000711e+00 9.749242781192282337e+01
9.099999999999999645e+00 9.722422255050152273e+01
9.150000000000000355e+00 9.695821870714924273e+01
9.199999999999999289e+00 9.669438633046949860e+01
9.250000000000000000e+00 9.643269603648373334e+01
9.300000000000000711e+00 9.617311899488494475e+01
9.349999999999999645e+00 9.591562691569615140e+01
9.400000000000000355e+00 9.566019203631952905e+01
9.449999999999999289e+00 9.540678710896320069e+01
9.500000000000000000e+00 9.515538538843217964e+01
9.550000000000000711e+00 9.490596062027159974e+01
9.599999999999999645e+00 9.465848702924986924e+01
9.650000000000000355e+00 9.441293930817052171e+01
9.699999999999999289e+00 9.416929260700163695e+01
9.750000000000000000e+00 9.392752252231231580e+01
9.800000000000000711e+00 9.368760508700590606e+01
9.849999999999999645e+00 9.344951676034025922e+01
9.900000000000000355e+00 9.321323441822556788e+01
9.949999999999999289e+00 9.297873534379058924e+01
1.000000000000000000e+01 9.274599721820882792e+01
1.005000000000000071e+01 9.251499811177585286e+01
1.009999999999999964e+01 9.228571647522998944e+01
1.015000000000000036e+01 9.205813113130834324e+01
1.019999999999999929e+01 9.183222126653093653e+01
1.025000000000000000e+01 9.160796642320536876e+01
1.030000000000000071e+01 9.138534649164523671e+01
1.034999999999999964e+01 9.116434170259572056e+01
1.040000000000000036e+01 9.094493261985941501e+01
1.044999999999999929e+01 9.072710013311674970e+01
1.050000000000000000e+01 9.051082545093446186e+01
1.055000000000000071e+01 9.029609009395657893e+01
1.059999999999999964e+01 9.008287588827239745e+01
1.065000000000000036e+01 8.987116495895561741e+01
1.069999999999999929e+01 8.966093972377008470e+01
1.075000000000000000e+01 8.945218288703642884e+01
1.080000000000000071e+01 8.924487743365524750e+01
1.084999999999999964e+01 8.903900662328184978e+01
1.090000000000000036e+01 8.883455398464820973e+01
1.094999999999999929e+01 8.863150331002759685e+01
1.100000000000000000e+01 8.842983864983789033e+01
1.105000000000000071e+01 8.822954430737915743e+01
1.109999999999999964e+01 8.803060483370194333e+01
1.115000000000000036e+01 8.783300502260210862e+01
1.119999999999999929e+01 8.763672990573888910e+01
1.125000000000000000e+01 8.744176474787218467e+01
1.130000000000000071e+01 8.724809504221610723e+01
1.134999999999999964e+01 8.705570650590512116e+01
1.140000000000000036e+01 8.686458507556965003e+01
1.144999999999999929e+01 8.667471690301815102e+01
1.150000000000000000e+01 8.648608835102250225e+01
1.155000000000000071e+01 8.629868598920381828e+01
1.159999999999999964e+01 8.611249659001599355e+01
1.165000000000000036e+01 8.592750712482408915e+01
1.169999999999999929e+01 8.574370476007499065e+01
1.175000000000000000e+01 8.556107685355780745e+01
1.180000000000000071e+01 8.537961095075155527e+01
1.184999999999999964e+01 8.519929478125760625e+01
1.190000000000000036e+01 8.502011625531470429e+01
1.194999999999999929e+01 8.484206346039430002e+01
1.200000000000000000e+01 8.466512465787393182e+01
1.205000000000000071e+01 8.448928827978666334e+01
1.209999999999999964e+01 8.431454292564438902e+01
1.215000000000000036e+01 8.414087735933321710e+01
1.219999999999999929e+01 8.396828050607885530e+01
1.225000000000000000e+01 8.379674144948012326e+01
1.230000000000000071e+01 8.362624942860904298e+01
1.234999999999999964e+01 8.345679383517536110e+01
1.240000000000000036e+01 8.328836421075411067e+01
1.244999999999999929e+01 8.312095024407452115e+01
1.250000000000000000e+01 8.295454176836854288e+01
1.255000000000000071e+01 8.278912875877756505e+01
1.259999999999999964e+01 8.262470132981582083e+01
1.265000000000000036e+01 8.246124973288897309e+01
1.269999999999999929e+01 8.229876435386638889e+01
1.275000000000000000e+01 8.213723571070600826e+01
1.280000000000000071e+01 8.197665445113015892e+01
1.284999999999999964e+01 8.181701135035123684e+01
1.290000000000000036e+01 8.165829730884574644e+01
1.294999999999999929e+01 8.150050335017597547e+01
1.300000000000000000e+01 8.134362061885747153e+01
1.305000000000000071e+01 8.118764037827168067e+01
1.309999999999999964e+01 8.103255400862239810e+01
1.315000000000000036e+01 8.087835300493497925e+01
1.319999999999999929e+01 8.072502897509733089e+01
1.325000000000000000e+01 8.057257363794151672e+01
1.330000000000000071e+01 8.042097882136516773e+01
1.334999999999999964e+01 8.027023646049150329e+01
1.340000000000000036e+01 8.012033859586726692e+01
1.344999999999999929e+01 7.997127737169743966e+01
1.350000000000000000e+01 7.982304503411604912e+01
1.355000000000000071e+01 7.967563392949202239e+01
1.359999999999999964e+01 7.952903650276937242e+01
1.365000000000000036e+01 7.938324529584082256e+01
1.369999999999999929e+01 7.923825294595411606e+01
1.375000000000000000e+01 7.909405218415029992e+01
1.380000000000000071e+01 7.895063583373298854e+01
1.384999999999999964e+01 7.880799680876828006e+01
1.390000000000000036e+01 7.866612811261410343e+01
1.394999999999999929e+01 7.852502283647891090e+01
1.400000000000000000e+01 7.838467415800835170e+01
1.405000000000000071e+01 7.824507533989994101e+01
1.409999999999999964e+01 7.810621972854458761e+01
1.415000000000000036e+01 7.796810075269456775e+01
1.419999999999999929e+01 7.783071192215743395e+01
1.425000000000000000e+01 7.769404682651497751e+01
1.430000000000000071e+01 7.755809913386700316e+01
1.434999999999999964e+01 7.742286258959910583e+01
1.440000000000000036e+01 7.728833101517402326e+01
1.444999999999999929e+01 7.715449830694603861e+01
1.450000000000000000e+01 7.702135843499783618e+01
1.455000000000000071e+01 7.688890544199942667e+01
1.459999999999999964e+01 7.675713344208845967e+01
1.465000000000000036e+01 7.662603661977179570e+01
1.469999999999999929e+01 7.649560922884735703e+01
1.475000000000000000e+01 7.636584559134637118e+01
1.480000000000000071e+01 7.623674009649506900e+01
1.484999999999999964e+01 7.610828719969580902e+01
1.490000000000000036e+01 7.598048142152680384e+01
1.494999999999999929e+01 7.585331734676053372e+01
1.500000000000000000e+01 7.572678962339989539e+01
1.505000000000000071e+01 7.560089296173224227e+01
1.509999999999999964e+01 7.547562213340040671e+01
1.515000000000000036e+01 7.535097197049080364e+01
1.519999999999999929e+01 7.522693736463793357e+01
1.525000000000000000e+01 7.510351326614510015e+01
1.530000000000000071e+01 7.498069468312093022e+01
1.534999999999999964e+01 7.485847668063134108e+01
1.540000000000000036e+01 7.473685437986671332e+01
1.544999999999999929e+01 7.461582295732391401e+01
1.550000000000000000e+01 7.449537764400271556e+01
1.555000000000000071e+01 7.437551372461666688e+01
1.559999999999999964e+01 7.425622653681763552e+01
1.565000000000000036e+01 7.413751147043413425e+01
1.569999999999999929e+01 7.401936396672303431e+01
1.575000000000000000e+01 7.390177951763418207e+01
1.580000000000000071e+01 7.378475366508803290e+01
1.584999999999999964e+01 7.366828200026563422e+01
1.590000000000000036e+01 7.355236016291108569e+01
1.594999999999999929e+01 7.343698384064589391e+01
1.600000000000000000e+01 7.332214876829510786e+01
1.605000000000000071e+01 7.320785072722520681e+01
1.610000000000000142e+01 7.309408554469305841e+01
1.614999999999999858e+01 7.298084909320611757e+01
1.619999999999999929e+01 7.286813728989348249e+01
1.625000000000000000e+01 7.275594609588753769e+01
1.630000000000000071e+01 7.264427151571608476e+01
1.635000000000000142e+01 7.253310959670474745e+01
1.639999999999999858e+01 7.242245642838933861e+01
1.644999999999999929e+01 7.231230814193797585e+01
1.650000000000000000e+01 7.220266090958311622e+01
1.655000000000000071e+01 7.209351094406271443e+01
1.660000000000000142e+01 7.198485449807085956e+01
1.664999999999999858e+01 7.187668786371737895e+01
1.669999999999999929e+01 7.176900737199642322e+01
1.675000000000000000e+01 7.166180939226370583e+01
1.680000000000000071e+01 7.155509033172239697e+01
1.685000000000000142e+01 7.144884663491734500e+01
1.689999999999999858e+01 7.134307478323755447e+01
1.694999999999999929e+01 7.123777129442673584e+01
1.700000000000000000e+01 7.113293272210178486e+01
